#Parameters = {h=500}
#"Wavelength / nm"	"Total ACS [pw] (h=500) [Real Part]"
#------------------------------------------------------
400.00000000000	15226147.436770
401.00000000000	15661168.216466
402.00000000000	16184162.484740
403.00000000000	16783468.928606
404.00000000000	17382552.915524
405.00000000000	17909381.137094
406.00000000000	18349743.571309
407.00000000000	18743373.116901
408.00000000000	19136276.680500
409.00000000000	19536238.606876
410.00000000000	19907610.968882
411.00000000000	20203721.920218
412.00000000000	20405200.248805
413.00000000000	20532239.899524
414.00000000000	20623285.440122
415.00000000000	20699969.487716
416.00000000000	20747380.987562
417.00000000000	20725181.214120
418.00000000000	20600809.967954
419.00000000000	20378692.974177
420.00000000000	20100901.980585
421.00000000000	19818061.217947
422.00000000000	19550379.630327
423.00000000000	19269671.929149
424.00000000000	18918217.302914
425.00000000000	18453146.015302
426.00000000000	17885010.786587
427.00000000000	17280751.211614
428.00000000000	16722664.470315
429.00000000000	16252579.099007
430.00000000000	15842099.108604
435.00000000000	12964310.709527
440.00000000000	11007878.573719
445.00000000000	9011251.2212566
450.00000000000	7299330.7108543
455.00000000000	6612280.8271913
460.00000000000	5299127.2874689
465.00000000000	4784462.1423310
470.00000000000	4285370.3638016
475.00000000000	3562850.5656892
480.00000000000	3590879.3438524
485.00000000000	2854247.1963419
490.00000000000	3067559.5177901
495.00000000000	2459236.7961883
500.00000000000	2729531.0599463
505.00000000000	2272888.7389001
510.00000000000	2616683.8483176
515.00000000000	2331705.7909487
520.00000000000	2838144.9362391
525.00000000000	2895351.1416739
526.00000000000	2995639.1176422
527.00000000000	3150836.6160723
528.00000000000	3346517.3573131
529.00000000000	3560411.0493544
530.00000000000	3769577.0929008
531.00000000000	3957319.9802002
532.00000000000	4117361.1364542
533.00000000000	4254403.3774246
534.00000000000	4381221.3114043
535.00000000000	4513141.8191313
536.00000000000	4662034.3423781
537.00000000000	4831527.7455259
538.00000000000	5014668.5025330
539.00000000000	5194859.4204943
540.00000000000	5349571.8766284
541.00000000000	5455658.3637895
542.00000000000	5494830.9009674
543.00000000000	5458041.2243648
544.00000000000	5347483.7209121
545.00000000000	5175898.5943305
546.00000000000	4963674.0973875
547.00000000000	4734441.0309169
548.00000000000	4510338.1010677
549.00000000000	4308004.6522671
550.00000000000	4136279.2358948
551.00000000000	3995864.6357379
552.00000000000	3880831.2181756
553.00000000000	3781464.1541932
554.00000000000	3687554.4226069
555.00000000000	3591496.9732525
556.00000000000	3490377.2440680
560.00000000000	3148082.7339408
564.00000000000	3338935.8073446
565.00000000000	3493356.3809158
566.00000000000	3678669.5315277
567.00000000000	3885388.1694508
568.00000000000	4103847.8600700
569.00000000000	4324938.0020730
570.00000000000	4540322.8216909
571.00000000000	4742244.3094922
572.00000000000	4923098.5662344
573.00000000000	5075002.2987779
574.00000000000	5189618.3024672
575.00000000000	5258394.3255937
576.00000000000	5273264.8971682
577.00000000000	5227734.1311123
578.00000000000	5118124.6955226
579.00000000000	4944725.2313176
580.00000000000	4712565.3452577
581.00000000000	4431559.7795558
582.00000000000	4115941.4191800
583.00000000000	3782962.0200812
584.00000000000	3451063.6311677
585.00000000000	3137750.4288887
586.00000000000	2857533.9377164
590.00000000000	2179763.4382071
595.00000000000	1847783.1786596
600.00000000000	1363103.7284313
#Parameters = {h=1000}
#"Wavelength / nm"	"Total ACS [pw] (h=1000) [Real Part]"
#-------------------------------------------------------
400.00000000000	15232499.849964
401.00000000000	15654590.823554
402.00000000000	16082054.041981
403.00000000000	16592578.086115
404.00000000000	17178910.853942
405.00000000000	17764705.522710
406.00000000000	18273633.854754
407.00000000000	18685506.874997
408.00000000000	19036769.546070
409.00000000000	19375893.701727
410.00000000000	19717890.450229
411.00000000000	20034524.406848
412.00000000000	20282143.053743
413.00000000000	20438717.579086
414.00000000000	20518502.864380
415.00000000000	20554594.402712
416.00000000000	20566926.246998
417.00000000000	20543860.988046
418.00000000000	20453220.405708
419.00000000000	20272738.105159
420.00000000000	20012614.975272
421.00000000000	19710886.042727
422.00000000000	19403210.317770
423.00000000000	19092654.095818
424.00000000000	18745418.046628
425.00000000000	18318213.856801
426.00000000000	17797511.127502
427.00000000000	17219548.437051
428.00000000000	16650501.443225
429.00000000000	16141447.139021
430.00000000000	15692213.065553
435.00000000000	12934346.893836
440.00000000000	10912469.994484
445.00000000000	8926571.1044676
450.00000000000	7301463.8584123
455.00000000000	6517944.2520798
460.00000000000	5299183.2569470
465.00000000000	4741846.1161735
470.00000000000	4247114.3566094
475.00000000000	3566767.9308670
480.00000000000	3531335.9327914
485.00000000000	2877678.9870604
490.00000000000	3006764.4657283
495.00000000000	2486669.1572818
500.00000000000	2672369.4854268
505.00000000000	2300691.0252275
510.00000000000	2562110.7714906
515.00000000000	2356588.9409064
520.00000000000	2789134.0024277
525.00000000000	2906911.3562955
526.00000000000	3018315.6086940
527.00000000000	3172327.9088434
528.00000000000	3355026.6468024
529.00000000000	3548270.6417645
530.00000000000	3735461.8010577
531.00000000000	3906435.0646705
532.00000000000	4059632.0781632
533.00000000000	4201315.9779167
534.00000000000	4342316.3336273
535.00000000000	4493241.7555459
536.00000000000	4659984.6838346
537.00000000000	4840748.9429482
538.00000000000	5025289.9859807
539.00000000000	5196724.8279925
540.00000000000	5335204.4339167
541.00000000000	5422357.6720959
542.00000000000	5445326.1784384
543.00000000000	5399592.8880659
544.00000000000	5289754.8963415
545.00000000000	5128229.3225712
546.00000000000	4932557.7005608
547.00000000000	4721858.1806452
548.00000000000	4513372.8903441
549.00000000000	4319799.2785976
550.00000000000	4147978.3888922
551.00000000000	3999035.5507722
552.00000000000	3869671.0704820
553.00000000000	3754234.8420288
554.00000000000	3646915.9242521
555.00000000000	3543682.8402219
556.00000000000	3443487.0887602
560.00000000000	3154755.0761614
564.00000000000	3335971.0670664
565.00000000000	3474767.6945458
566.00000000000	3645208.5669621
567.00000000000	3841212.2990262
568.00000000000	4055429.7496812
569.00000000000	4279471.8207220
570.00000000000	4504020.1082528
571.00000000000	4718911.6559480
572.00000000000	4913327.5349789
573.00000000000	5076132.6617799
574.00000000000	5196455.6211357
575.00000000000	5264485.0426443
576.00000000000	5272438.9952296
577.00000000000	5215523.3270634
578.00000000000	5092763.4832406
579.00000000000	4907527.7205705
580.00000000000	4667586.0391048
581.00000000000	4384670.0740742
582.00000000000	4073524.6594741
583.00000000000	3750534.5561142
584.00000000000	3432106.5119739
585.00000000000	3133026.4411917
586.00000000000	2864982.4329120
590.00000000000	2184628.2226260
595.00000000000	1814611.8521370
600.00000000000	1377080.1681542
#Parameters = {h=1230}
#"Wavelength / nm"	"Total ACS [pw] (h=1230) [Real Part]"
#-------------------------------------------------------
400.00000000000	15278084.129077
401.00000000000	15699713.054997
402.00000000000	16111134.398177
403.00000000000	16607594.033817
404.00000000000	17194922.871479
405.00000000000	17794490.704193
406.00000000000	18316736.804900
407.00000000000	18730640.444660
408.00000000000	19073199.122621
409.00000000000	19402575.336753
410.00000000000	19742858.911237
411.00000000000	20066723.742970
412.00000000000	20323668.352518
413.00000000000	20483814.325021
414.00000000000	20559085.148018
415.00000000000	20586929.919228
416.00000000000	20594028.047799
417.00000000000	20572385.651044
418.00000000000	20487806.772777
419.00000000000	20312520.003030
420.00000000000	20052192.973799
421.00000000000	19744649.411704
422.00000000000	19429442.907457
423.00000000000	19114472.109652
424.00000000000	18768094.434250
425.00000000000	18345241.807183
426.00000000000	17828317.448870
427.00000000000	17250246.887665
428.00000000000	16676795.874553
429.00000000000	16161485.797267
430.00000000000	15707481.097850
435.00000000000	12954843.592574
440.00000000000	10922068.438503
445.00000000000	8934992.6151058
450.00000000000	7312349.7673828
455.00000000000	6519151.8971196
460.00000000000	5308974.3711475
465.00000000000	4742287.7550868
470.00000000000	4251527.9046689
475.00000000000	3571130.7243269
480.00000000000	3529476.6957188
485.00000000000	2884923.5908841
490.00000000000	3001727.9712860
495.00000000000	2494814.3017453
500.00000000000	2666338.3700848
505.00000000000	2308380.7373157
510.00000000000	2556766.8940845
515.00000000000	2363038.1853451
520.00000000000	2785542.7584196
525.00000000000	2911352.8792709
526.00000000000	3025686.3093922
527.00000000000	3180592.1580612
528.00000000000	3361931.6674333
529.00000000000	3552087.3183138
530.00000000000	3735523.7261192
531.00000000000	3903315.4312143
532.00000000000	4054922.0467157
533.00000000000	4197079.9032573
534.00000000000	4340430.1443642
535.00000000000	4494814.9858142
536.00000000000	4665039.5098668
537.00000000000	4848256.8662087
538.00000000000	5033516.6146899
539.00000000000	5203773.6122379
540.00000000000	5339594.0309208
541.00000000000	5423440.2682103
542.00000000000	5443453.3102934
543.00000000000	5395966.1508240
544.00000000000	5286050.8624008
545.00000000000	5126098.9112254
546.00000000000	4933140.4865427
547.00000000000	4725476.0237502
548.00000000000	4519457.2525152
549.00000000000	4327064.9200277
550.00000000000	4154803.4253910
551.00000000000	4003917.6983356
552.00000000000	3871640.2631909
553.00000000000	3753113.3574859
554.00000000000	3643353.2960479
555.00000000000	3538975.0219719
556.00000000000	3439221.9435203
560.00000000000	3160627.2748398
564.00000000000	3337891.7375690
565.00000000000	3473588.1449070
566.00000000000	3641452.7592596
567.00000000000	3836054.2291976
568.00000000000	4050407.2402054
569.00000000000	4276104.5839838
570.00000000000	4503443.3282415
571.00000000000	4721601.1448349
572.00000000000	4918988.1152512
573.00000000000	5083772.2069252
574.00000000000	5204619.5913619
575.00000000000	5271604.5880529
576.00000000000	5277185.4254927
577.00000000000	5217114.1955123
578.00000000000	5091133.7953368
579.00000000000	4903328.8851496
580.00000000000	4662030.5743917
581.00000000000	4379253.1545680
582.00000000000	4069683.1880680
583.00000000000	3749326.5221502
584.00000000000	3433993.8109672
585.00000000000	3137775.2607512
586.00000000000	2871730.8047438
590.00000000000	2186427.1656499
595.00000000000	1809000.4612091
600.00000000000	1383492.9269736
#Parameters = {h=1470}
#"Wavelength / nm"	"Total ACS [pw] (h=1470) [Real Part]"
#-------------------------------------------------------
400.00000000000	15268086.885451
401.00000000000	15686231.658737
402.00000000000	16118796.922942
403.00000000000	16639206.174414
404.00000000000	17232407.329537
405.00000000000	17817774.882155
406.00000000000	18321453.905595
407.00000000000	18729493.097695
408.00000000000	19082556.986498
409.00000000000	19428001.779673
410.00000000000	19775852.427111
411.00000000000	20093684.707108
412.00000000000	20337832.818152
413.00000000000	20490096.740855
414.00000000000	20568819.708885
415.00000000000	20608006.385910
416.00000000000	20624718.343500
417.00000000000	20603284.723104
418.00000000000	20509740.182866
419.00000000000	20323680.293794
420.00000000000	20059193.969530
421.00000000000	19757031.243124
422.00000000000	19452283.967988
423.00000000000	19144690.423991
424.00000000000	18797060.095254
425.00000000000	18365240.646041
426.00000000000	17837999.374437
427.00000000000	17255231.367202
428.00000000000	16685414.718779
429.00000000000	16178932.444335
430.00000000000	15732549.839502
435.00000000000	12958173.424963
440.00000000000	10935761.597528
445.00000000000	8947966.2815335
450.00000000000	7312050.3158634
455.00000000000	6530964.8905643
460.00000000000	5309151.5326947
465.00000000000	4747901.1406501
470.00000000000	4255945.5727805
475.00000000000	3570787.1230342
480.00000000000	3537655.6805333
485.00000000000	2881116.3855178
490.00000000000	3010895.4810818
495.00000000000	2489527.5307443
500.00000000000	2675328.8324862
505.00000000000	2303015.5886688
510.00000000000	2564732.1911243
515.00000000000	2358941.8466637
520.00000000000	2791725.2992082
525.00000000000	2910343.7483661
526.00000000000	3021547.1669376
527.00000000000	3175339.6837177
528.00000000000	3357907.0852263
529.00000000000	3551198.1759001
530.00000000000	3738659.0008369
531.00000000000	3910105.1451680
532.00000000000	4063902.5476296
533.00000000000	4206200.7412266
534.00000000000	4347714.9748929
535.00000000000	4498961.4416229
536.00000000000	4665797.3322620
537.00000000000	4846453.1353061
538.00000000000	5030757.0212662
539.00000000000	5201925.7394697
540.00000000000	5340216.1123193
541.00000000000	5427321.3230319
542.00000000000	5450402.5666182
543.00000000000	5404900.0988140
544.00000000000	5295322.6120549
545.00000000000	5133986.1313557
546.00000000000	4938334.3048583
547.00000000000	4727431.0602834
548.00000000000	4518522.5431061
549.00000000000	4324360.9276056
550.00000000000	4151893.2043431
551.00000000000	4002363.1121759
552.00000000000	3872574.3131546
553.00000000000	3756935.9826451
554.00000000000	3649642.0915316
555.00000000000	3546605.1308606
556.00000000000	3446685.0536227
560.00000000000	3158021.4995411
564.00000000000	3337946.9575960
565.00000000000	3476780.6650246
566.00000000000	3647489.0287307
567.00000000000	3843946.5798164
568.00000000000	4058730.2515700
569.00000000000	4283348.6285976
570.00000000000	4508385.2561920
571.00000000000	4723600.5752915
572.00000000000	4918134.3550485
573.00000000000	5080849.4882791
574.00000000000	5200910.7205788
575.00000000000	5268575.6413627
576.00000000000	5276133.3331161
577.00000000000	5218860.2925212
578.00000000000	5095832.0117823
579.00000000000	4910435.9596178
580.00000000000	4670431.4153773
581.00000000000	4387519.1379938
582.00000000000	4076386.6919538
583.00000000000	3753365.5338319
584.00000000000	3434822.9916945
585.00000000000	3135518.9725983
586.00000000000	2867146.4239364
590.00000000000	2185205.9496482
595.00000000000	1815249.6517365
600.00000000000	1377617.3993679
#Parameters = {h=1720}
#"Wavelength / nm"	"Total ACS [pw] (h=1720) [Real Part]"
#-------------------------------------------------------
400.00000000000	15132585.860510
401.00000000000	15570103.825994
402.00000000000	16109895.764456
403.00000000000	16723428.706652
404.00000000000	17321313.873455
405.00000000000	17832570.097242
406.00000000000	18255572.839111
407.00000000000	18642805.550910
408.00000000000	19043019.201331
409.00000000000	19455607.365880
410.00000000000	19833228.320717
411.00000000000	20123925.093190
412.00000000000	20313062.210227
413.00000000000	20430869.946896
414.00000000000	20522541.918339
415.00000000000	20608039.979814
416.00000000000	20664441.922020
417.00000000000	20644127.790940
418.00000000000	20513852.048669
419.00000000000	20283978.784506
420.00000000000	20003855.502432
421.00000000000	19726667.921173
422.00000000000	19468666.252301
423.00000000000	19194733.261841
424.00000000000	18842988.537210
425.00000000000	18372377.000447
426.00000000000	17799553.170956
427.00000000000	17196807.472895
428.00000000000	16646859.711743
429.00000000000	16186848.597469
430.00000000000	15782320.676179
435.00000000000	12904756.189606
440.00000000000	10954192.104084
445.00000000000	8980723.7466123
450.00000000000	7266845.5024424
455.00000000000	6581377.3221275
460.00000000000	5282990.1738089
465.00000000000	4760272.3595920
470.00000000000	4270636.4409282
475.00000000000	3548506.2608451
480.00000000000	3575548.4717813
485.00000000000	2845933.8184966
490.00000000000	3053091.0269676
495.00000000000	2453722.5561706
500.00000000000	2716362.5089883
505.00000000000	2268447.1378578
510.00000000000	2604454.2119138
515.00000000000	2326910.2153441
520.00000000000	2826241.3723681
525.00000000000	2888004.2101225
526.00000000000	2988418.1093653
527.00000000000	3142814.8676210
528.00000000000	3336976.2355114
529.00000000000	3549039.0511798
530.00000000000	3756528.7957618
531.00000000000	3943127.2389859
532.00000000000	4102737.5017095
533.00000000000	4240011.9182413
534.00000000000	4367475.3336156
535.00000000000	4500101.3752807
536.00000000000	4649415.9262427
537.00000000000	4818818.0614591
538.00000000000	5001306.1079769
539.00000000000	5180412.9668963
540.00000000000	5333879.2419996
541.00000000000	5438874.6598214
542.00000000000	5477394.9828442
543.00000000000	5440554.3088776
544.00000000000	5330568.0609376
545.00000000000	5160048.8120401
546.00000000000	4949161.7262813
547.00000000000	4721276.2605693
548.00000000000	4498303.7745234
549.00000000000	4296745.0204885
550.00000000000	4125398.7876500
551.00000000000	3985034.1323804
552.00000000000	3869860.3702875
553.00000000000	3770319.3542867
554.00000000000	3676349.2873700
555.00000000000	3580432.0906833
556.00000000000	3479680.1118751
560.00000000000	3139676.0599684
564.00000000000	3330059.8685708
565.00000000000	3483829.4440899
566.00000000000	3668402.9584105
567.00000000000	3874366.6747418
568.00000000000	4092120.5039277
569.00000000000	4312599.8520760
570.00000000000	4527498.0889999
571.00000000000	4729060.9099040
572.00000000000	4909672.9122627
573.00000000000	5061427.5782613
574.00000000000	5175963.9645366
575.00000000000	5244704.0876599
576.00000000000	5259571.8670208
577.00000000000	5214072.6266415
578.00000000000	5104543.3566107
579.00000000000	4931309.9978559
580.00000000000	4699433.9441439
581.00000000000	4418872.3169524
582.00000000000	4103878.2024419
583.00000000000	3771712.9941808
584.00000000000	3440793.2364885
585.00000000000	3128573.6536426
586.00000000000	2849487.1088984
590.00000000000	2174870.2415381
595.00000000000	1842045.4495272
600.00000000000	1358800.3368319
#Parameters = {h=2300}
#"Wavelength / nm"	"Total ACS [pw] (h=2300) [Real Part]"
#-------------------------------------------------------
400.00000000000	14993217.232151
401.00000000000	15723455.502279
402.00000000000	16377668.465567
403.00000000000	16856010.299122
404.00000000000	17214915.522275
405.00000000000	17594754.320059
406.00000000000	18087418.635936
407.00000000000	18661109.745344
408.00000000000	19196127.538427
409.00000000000	19587767.098090
410.00000000000	19824651.273202
411.00000000000	19983532.462992
412.00000000000	20156208.655133
413.00000000000	20374665.730298
414.00000000000	20591830.282638
415.00000000000	20724394.253714
416.00000000000	20717221.464475
417.00000000000	20579731.330712
418.00000000000	20373194.737330
419.00000000000	20165052.261093
420.00000000000	19984207.439278
421.00000000000	19806600.875859
422.00000000000	19574792.643487
423.00000000000	19236593.208499
424.00000000000	18778594.465198
425.00000000000	18236027.252899
426.00000000000	17675085.713906
427.00000000000	17158155.294992
428.00000000000	16708169.630101
429.00000000000	16295161.772026
430.00000000000	15855234.933323
435.00000000000	12913776.023375
440.00000000000	10849510.282758
445.00000000000	9061510.7181592
450.00000000000	7214546.5223576
455.00000000000	6571910.4394046
460.00000000000	5310038.0791757
465.00000000000	4710639.4016009
470.00000000000	4315735.4106714
475.00000000000	3499120.1899313
480.00000000000	3614830.5431750
485.00000000000	2805730.3576297
490.00000000000	3085861.6721593
495.00000000000	2418471.9142197
500.00000000000	2748958.5637737
505.00000000000	2232734.2520206
510.00000000000	2639837.0908272
515.00000000000	2290282.7750771
520.00000000000	2858669.9383273
525.00000000000	2859847.7928711
526.00000000000	2947864.7285488
527.00000000000	3101707.3525357
528.00000000000	3307300.4997030
529.00000000000	3539279.2791634
530.00000000000	3769135.4823633
531.00000000000	3973837.8941404
532.00000000000	4141911.3370097
533.00000000000	4275539.6007179
534.00000000000	4388371.3709553
